-----False Positives Indices-----
-----False Negatives Indices-----
60
159
415
686
905
1189
1422
1621
1965
2236
2495
2721
2955
3197
3470
3798
4109
4353
4591
4847
4989
5220
5477
5688
5919
6102
6391
6636
6836
7069
7323
7614
7819
8071
8303
8514
8667
8922
9116
9349
9642
10008
10267
10521
10771
11043
11300
11474
11800
12007
12252
12454
12690
12928
13222
13550
13800
14021
14349
14615
14866
15014
15241
15470
15692
15895
16151
16407
16569
16813
17042
17271
17425
17553
17775
17958
18261
18428
18681
18924
19075
19300
19591
19825
20050
20271
20584
20907
21167
21406
21561
21744
21963
22296
22597
22754
22914
23153
23502
23658
23872
24191
24396
24641
24871
25118
25360
25623
25857
26138
26362
26610
26803
27042
27257
27443
27598
27878
28128
28377
28617
28915
29153
29443
29712
29939
30171
30314
30577
30780
31022
31305
31720
32030
32257
32429
32628
32861
33177
33362
33648
33894
34202
34351
34624
34871
35019
35221
35375
35622
35921
36255
36489
36684
37033
37199
37340
37584
37824
38074
38318
38583
38865
39162
39450
39783
40080
40305
40607
40811
41040
41260
41522
41695
41925
42168
42415
42564
42700
43022
43242
43473
43616
43934
44333
44649
44920
45201
45408
45594
45770
45986
46198
46460
46752
47002
47284
47500
47749
47953
48197
48416
48665
48918
49137
49376
49559
49705
50081
50332
50640
50929
51250
51501
51685
51913
52141
52405
52666
52911
53237
53451
53620
53846
54085
54409
54658
54885
55111
55261
55519
55680
56045
56246
56447
56690
56952
57163
57321
57732
58034
58261
58447
58578
58809
59083
59332
59593
59848
60079
60338
60587
60896
61145
61395
61628
61858
62073
62314
62465
62702
62922
63166
63346
63616
63829
64084
64308
64521
64689
64927
65120
65335
65634
65949
66197
66634
66808
67039
67252
67523
67772
68008
68298
68571
68946
69177
69477
69654
69888
70171
70392
70536
70670
71068
71279
71479
71816
72051
72203
72484
72728
72967
73253
73526
73722
74049
74479
74702
74975
75202
75427
75711
75941
76076
76218
76437
76739
76969
77327
77516
77733
77948
78099
78339
78493
78716
78952
79186
79429
79661
79879
80247
80554
80841
81116
81390
81678
81928
82166
82417
82736
83035
83308
83616
83847
84154
84452
84722
84927
85118
85325
85578
85840
86003
86219
86389
86614
86865
87110
87358
87543
87766
87992
88205
88361
88587
88727
89008
89272
89497
89772
90050
90337
90610
90841
91046
91283
91519
91754
92021
92393
92591
92825
93049
93239
93376
93605
93959
94150
94392
94645
94874
95112
95248
95600
95835
96165
96468
96744
96904
97120
97351
97567
97805
98213
98518
98724
99013
99341
99612
99897
100144
100415
100735
101067
101324
101520
101754
102047
102307
102524
102665
102907
103189
103437
103660
103879
104113
104336
104597
104957
105271
105486
105826
106048
106183
106433
106636
106947
107299
107644
107974
108172
108444
108686
108938
109184
109461
109612
109832
110139
110323
110559
110781
111100
111380
111633
111893
112122
112444
112679
113109
113368
113522
113774
114076
114390
114687
114900
115122
115396
115578
115846
116059
116294
116531
116703
116890
117149
117306
117477
117901
118142
118302
118544
118729
118973
119274
119526
119874
120426
120672
120918
121142
121434
121694
121927
122203
122427
122634
122845
123242
123550
123795
124038
124258
124504
124737
124883
125146
125417
125777
126012
126208
126471
126765
126966
127242
127459
127672
127960
128182
128407
128551
128793
129060
129253
129523
129757
130092
130406
130577
130830
130989
131218
131530
131793
132005
132238
132558
132815
133160
133427
133790
134059
134363
134606
134842
135090
135354
135608
135869
136091
136226
137429
138167
138552
138701
139293
139691
140255
140744
140913
141441
141962
142435
142889
143128
143374
143823
144324
144747
145119
145575
146018
146447
146863
147274
147691
148133
148597
149026
149469
149923
150413
150896
151348
151785
152229
152704
153147
153572
153924
154251
154408
154954
155188
155635
156285
156749
157166
157449
157876
158083
158564
159282
159364
159951
160024
160609
160693
161291
161716
161905
162372
162810
163294
163789
164236
164702
165158
165235
165508
165879
166315
166407
166975
167426
167882
168323
168513
168989
169430
169791
170145
170580
171037
171500
171815
171883
172064
172235
172463
172633
172769
173007
173187
173366
173542
173698
173880
174137
174321
174560
174741
174974
175168
175356
175545
175766
176067
176257
176524
176795
177056
177213
177426
177611
177867
178141
178302
178502
178802
179023
179174
179435
179615
179869
180064
180280
180452
180617
180760
180962
181177
181439
181582
181732
181932
182162
182593
182933
183243
183388
183686
183888
184030
184280
184431
184600
184755
185068
185330
186038
186377
187101
187323
187984
188183
188387
188577
189064
189391
189598
190004
190075
190669
190744
191370
191455
192066
192138
192716
192789
193402
193490
194092
194173
194741
194810
195421
195503
196137
196227
196801
197209
197544
197816
198355
198452
199034
199458
199610
199762
200330
200757
201061
201583
202008
202371
202852
203263
203608
204087
204540
204885
205370
205775
206135
206641
207088
207431
207663
207895
208317
208519
209042
209465
209794
210145
210584
210928
211225
211766
212199
212655
212989
213276
213804
214230
214662
214992
215293
215822
216242
216670
217010
217311
217869
218323
218749
218912
219075
219660
220097
220401
220924
221339
221710
222188
222606
222926
223189
223453
223914
224368
224804
225253
225703
226170
226620
227029
227447
227896
228330
228657
229167
229369
229817
230263
230709
230877
231045
231545
231987
232307
232858
233284
233617
234099
234548
234912
235391
235806
236148
236273
236399
236945
237390
237799
237968
238137
238660
239116
239450
239951
240350
240714
241191
241638
241963
242448
242874
243245
243730
244160
244481
244990
245435
245800
246257
246667
247006
247495
247937
248278
248718
249130
249471
249950
250389
250699
251215
251646
251989
252516
252926
253243
253758
254176
254549
255017
255444
255762
256334
256765
257082
257584
258016
258357
258839
259259
259567
260033
260479
260809
261287
261710
262016
262534
262980
263297
263803
264212
264544
265070
265494
265808
266038
266268
266466
266921
267359
267699
268141
268326
268799
269236
269668
269998
270495
270923
271243
271758
271956
272389
272794
273218
273565
274048
274232
274689
275106
275565
275888
276441
276870
277545
277995
278437
278733
279247
279691
279890
280382
280812
281234
281500
281926
282391
282692
282880
283245
283680
283885
284380
284820
285250
285554
286098
286557
286998
287288
287834
288256
288689
289059
289538
289951
290383
290750
291015
291530
291952
292375
292545
292715
293239
293660
293983
294470
294904
295238
295730
296155
296454
296960
297409
297735
298237
298656
298977
299527
299971
300291
300782
301206
301560
302041
302446
302782
303232
303671
304022
304484
304888
305226
305742
306167
306517
306992
307406
307738
308258
308676
309000
309454
309891
310228
310716
311129
311449
311914
312360
312701
313190
313611
313924
314419
314850
315187
315630
316048
316362
316875
317300
317608
318116
318545
318872
319419
319820
320119
320625
321060
321386
321877
322286
322600
323109
323552
323868
324358
324781
325107
325609
326048
326330
326811
327236
327584
328046
328471
328731
328999
329268
329718
330154
330443
330966
331401
331841
332157
332694
333099
333497
333831
334357
334768
335155
335487
335987
336430
336848
337158
337666
338121
338577
338860
339049
339408
339837
340278
340587
341147
341549
341955
342286
342806
343225
343645
343959
344465
344909
345347
345645
346155
346591
347019
347354
347849
348266
348680
349037
349562
349992
350391
350741
351242
351683
352024
352463
352653
353128
353573
353743
353913
354409
354832
355135
355662
356074
356438
356839
357272
357619
357861
358104
358311
358744
359137
359496
359960
360398
360708
361175
361606
361983
362159
362657
363047
363392
363811
364218
364621
364992
365180
365369
365761
366179
366547
367003
367394
367759
368222
368650
369037
369472
369878
370270
370726
371155
371525
371944
372356
372754
373185
373619
373957
374067
374177
374663
375112
375540
375711
375882
376332
376767
377094
377589
378021
378342
378794
379258
379595
380080
380490
380832
381280
381714
382092
382490
382904
383251
383746
384167
384525
384958
385389
385741
386248
386657
386998
387112
387227
387728
388178
388600
388776
388952
389408
389855
390213
390679
391065
391429
391637
391845
392041
392172
392544
392959
393128
393297
393762
394211
394567
395070
395181
395486
395610
395818
396037
396256
396465
396657
396840
397228
397302
397651
397821
398276
398477
398894
399341
399700
400064
400407
400593
400755
401105
401501
401890
402356
403077
403582
404033
404477
404944
405438
405626
406176
406381
406910
407614
407942
408286
408677
409085
409554
410002
410424
410832
411249
411699
412129
412498
412698
412853
413184
413617
413997
414228
414738
415145
415563
415953
416444
416851
417225
417433
417590
417934
418367
418752
419208
419396
419870
420307
420493
420680
421139
421548
421903
422376
422822
423171
423628
424032
424416
424535
424654
424806
425184
425599
426006
426424
426815
427319
427509
427642
427984
428397
428761
429248
429686
429869
430324
430753
431126
431612
432034
432365
432858
433294
433737
433928
434381
434791
435151
435648
436076
436484
436829
437306
437516
437659
438033
438439
438865
439198
439456
439621
440003
440416
440853
441259
441643
442124
442309
442772
443190
443545
444035
444465
444841
445050
445526
445968
446410
446776
447007
447509
447923
448365
448732
449222
449625
449984
450485
450924
451119
451254
451605
452001
452194
452707
453152
453468
453982
454413
454842
455047
455555
455966
456272
456801
457246
457664
458008
458470
458666
459140
459587
459996
460334
460781
461232
461555
462069
462156
462721
463131
463578
463943
464405
464575
465065
465497
465932
466112
466292
466743
467152
467477
467985
468405
468740
469202
469600
469974
470428
470853
471157
471660
472092
472470
472950
473365
473705
474195
474627
475002
475438
475867
476225
476714
477136
477496
477922
478354
478729
479167
479595
479922
480401
480826
481219
481689
482103
482456
482976
483403
483771
484198
484620
484974
485490
485887
486238
486689
487118
487494
487965
488365
488709
489202
489656
490001
490461
490878
491225
491706
492124
492495
492708
492921
493374
493856
494285
494706
495133
495555
496016
496451
496859
497264
497709
498141
498584
499000
499410
499826
500283
500724
501149
501572
502006
502449
502887
503304
503708
504144
504594
505021
505434
505841
506255
506695
507144
507555
507959
508376
508790
509229
509651
510061
510454
510914
511356
511766
512171
512581
512999
513433
513844
514238
514629
515061
515500
515914
516325
516740
517166
517613
518049
518447
518854
519268
519715
520105
520534
520916
521333
521767
522226
522424
522564
522927
523354
523554
524043
524465
524641
524774
525129
525533
525969
526408
526587
527103
527310
527806
527903
528550
528739
529258
529460
529955
530053
530695
530879
531413
531611
532105
532320
532855
532956
533554
533729
534242
534443
534980
535176
535314
535690
535879
536375
536473
537134
537313
537840
538025
538146
538538
538728
539283
539386
540001
540174
540692
540903
541445
541629
541865
542230
542396
542921
543144
543693
543793
544401
544575
545132
545324
545889
546098
546601
546687
547295
547485
547639
548032
548230
548354
548741
548833
549053
549478
549690
550263
550972
551140
551699
551796
551907
552443
552618
553145
553558
553996
554359
554613
555139
555842
556029
556577
557278
557457
557602
557941
558269
558643
558830
558969
559322
559499
559628
559989
560175
560709
560815
561433
561609
561735
562130
562311
562460
562923
563378
563573
564081
564262
564805
564913
565565
565732
566244
566349
566984
567165
567708
567803
568396
568486
569094
569289
569829
569921
570493
570586
570676
570815
571016
571186
571584
571684
571923
572348
572543
573050
573143
573801
573990
574487
574742
574802
574988
575137
575349
575525
575699
575857
576046
576336
576541
576694
576908
577079
577278
577571
577868
578082
578253
578454
578697
578964
579144
579400
579635
579959
580157
580368
580545
580711
580944
581160
581361
581518
581659
581813
581965
582100
582249
582529
582712
583123
583362
583555
583736
583915
584224
584458
584719
584970
585211
585514
585694
585869
586295
586576
586838
587075
587360
587517
587651
587827
588036
588295
588534
588798
589008
589283
589478
589814
590000
590253
590522
590773
590995
591260
591425
591623
591919
592144
592367
592654
592921
593238
593399
593683
593947
594162
594421
594585
594847
595092
595351
595565
595853
596034
596348
596563
596851
597068
597326
597581
597822
598018
598240
598456
598758
599023
599282
599443
599665
599825
600116
600371
600563
600872
601127
601423
601709
601923
602182
602370
602590
602766
602915
603140
603403
603669
603911
604096
604360
604530
604764
604995
605234
605478
605715
605974
606196
606428
606634
606868
607020
607198
607417
607560
607794
608070
608312
608552
608865
609089
609339
609561
609830
610137
610404
610565
610811
611033
611316
611597
611832
612135
612401
612718
612980
613186
613390
613578
613793
614110
614274
614517
614734
614944
615121
615257
615518
615798
615979
616224
616469
616725
616965
617135
617443
617662
617951
618146
618305
618575
618816
619015
619221
619444
619680
619858
620051
620226
620464
620739
620973
621242
621401
621626
621878
622143
622408
622632
622849
623042
623293
623460
623679
623912
624146
624350
624580
624829
625128
625473
625718
625928
626181
626424
626587
626829
627023
627197
627460
627708
627880
628312
628530
628701
628905
629130
629324
629624
629796
630031
630291
630459
630733
630954
631221
631391
631556
631814
632076
632361
632617
632776
633008
633285
633503
633736
634015
634386
634669
634922
635208
635493
635666
635838
636101
636350
636652
636907
637281
637523
637694
637877
638103
638295
638532
638710
638929
639138
639365
639629
639845
639996
640259
640522
640791
641018
641205
641542
641821
642037
642306
642495
642734
642969
643236
643411
644594
645177
645802
646051
646257
646519
646690
647249
647321
647965
648419
648594
649104
649181
649800
